t[s]	AI 0 [V]	AI 1 [V]	AI 2 [V]
-3.2	-4.76833	-4.57038	-4.95123
-3.1998	-4.76818	-4.57049	-4.95158
-3.1996	-4.76787	-4.57048	-4.9521
-3.1994	-4.76774	-4.57041	-4.95255
-3.1992	-4.76757	-4.57055	-4.95317
-3.199	-4.76735	-4.57065	-4.95373
-3.1988	-4.76734	-4.57074	-4.95383
-3.1986	-4.7679	-4.57081	-4.95357
-3.1984	-4.76871	-4.57059	-4.95295
-3.1982	-4.76956	-4.57064	-4.9519
-3.198	-4.77032	-4.57092	-4.95117
-3.1978	-4.77102	-4.57118	-4.9504
-3.1976	-4.77159	-4.57134	-4.94976
-3.1974	-4.7721	-4.57158	-4.94922
-3.1972	-4.77259	-4.57169	-4.94869
-3.197	-4.77301	-4.57171	-4.94816
-3.1968	-4.77336	-4.57182	-4.94757
-3.1966	-4.77376	-4.57178	-4.94728
-3.1964	-4.7741	-4.57158	-4.94684
-3.1962	-4.77445	-4.57146	-4.94643
-3.196	-4.7743	-4.57142	-4.94605
-3.1958	-4.77403	-4.57174	-4.94558
-3.1956	-4.77392	-4.57206	-4.94519
-3.1954	-4.77383	-4.57231	-4.94482
-3.1952	-4.77379	-4.57277	-4.94441
-3.195	-4.7738	-4.57309	-4.94411
-3.1948	-4.77376	-4.57351	-4.94359
-3.1946	-4.77387	-4.57391	-4.94321
-3.1944	-4.77376	-4.57441	-4.94281
-3.1942	-4.7735	-4.57483	-4.94234
-3.194	-4.77306	-4.57554	-4.94179
-3.1938	-4.77252	-4.57616	-4.94177
-3.1936	-4.77199	-4.57675	-4.94185
-3.1934	-4.77198	-4.57703	-4.94216
-3.1932	-4.77207	-4.57697	-4.94238
-3.193	-4.77211	-4.57703	-4.94289
-3.1928	-4.77224	-4.57698	-4.94334
-3.1926	-4.77215	-4.57667	-4.94421
-3.1924	-4.77218	-4.57606	-4.94502
-3.1922	-4.77224	-4.5755	-4.94577
-3.192	-4.77238	-4.57496	-4.9465
-3.1918	-4.77235	-4.57448	-4.94708
-3.1916	-4.77249	-4.57394	-4.94761
-3.1914	-4.77262	-4.5733	-4.94822
-3.1912	-4.77275	-4.57289	-4.94885
-3.191	-4.77285	-4.57245	-4.94956
-3.1908	-4.77262	-4.57238	-4.95016
-3.1906	-4.77226	-4.57283	-4.95073
-3.1904	-4.77185	-4.57293	-4.95129
-3.1902	-4.77171	-4.57291	-4.95167
-3.19	-4.77138	-4.57298	-4.95224
-3.1898	-4.77106	-4.57284	-4.95278
-3.1896	-4.77093	-4.57289	-4.9533
-3.1894	-4.77111	-4.57282	-4.9537
-3.1892	-4.77141	-4.5729	-4.95363
-3.189	-4.77188	-4.57291	-4.9533
-3.1888	-4.77223	-4.57305	-4.95307
-3.1886	-4.77256	-4.57307	-4.95288
-3.1884	-4.77306	-4.57306	-4.95254
-3.1882	-4.77395	-4.57258	-4.95243
-3.188	-4.77464	-4.57192	-4.95225
-3.1878	-4.77538	-4.57144	-4.95222
-3.1876	-4.7759	-4.57093	-4.95198
-3.1874	-4.77631	-4.57038	-4.95164
-3.1872	-4.77672	-4.57005	-4.95098
-3.187	-4.77693	-4.56976	-4.95033
-3.1868	-4.77721	-4.56983	-4.94981
-3.1866	-4.77752	-4.57007	-4.94924
-3.1864	-4.77783	-4.57007	-4.94867
-3.1862	-4.7782	-4.57008	-4.94818
-3.186	-4.77852	-4.56994	-4.94773
-3.1858	-4.77849	-4.56997	-4.94707
-3.1856	-4.77816	-4.57051	-4.94654
-3.1854	-4.77809	-4.57108	-4.946
-3.1852	-4.77802	-4.57155	-4.94532
-3.185	-4.77782	-4.57183	-4.94475
-3.1848	-4.7776	-4.57227	-4.94426
-3.1846	-4.77717	-4.57276	-4.94408
-3.1844	-4.7765	-4.57296	-4.944
-3.1842	-4.77593	-4.57358	-4.94434
-3.184	-4.77547	-4.57396	-4.94453
-3.1838	-4.77498	-4.57438	-4.94481
-3.1836	-4.77465	-4.57496	-4.94501
-3.1834	-4.77409	-4.57573	-4.94516
-3.1832	-4.77398	-4.576	-4.9452
-3.183	-4.77414	-4.57589	-4.94538
-3.1828	-4.77435	-4.5759	-4.9455
-3.1826	-4.77455	-4.57603	-4.94557
-3.1824	-4.77468	-4.57623	-4.94563
-3.1822	-4.77478	-4.5763	-4.94579
-3.182	-4.77474	-4.5764	-4.94578
-3.1818	-4.77484	-4.57652	-4.94579
-3.1816	-4.77477	-4.5766	-4.94627
-3.1814	-4.7748	-4.57644	-4.94684
-3.1812	-4.77504	-4.57612	-4.94775
-3.181	-4.77519	-4.57567	-4.94864
-3.1808	-4.77529	-4.5751	-4.9497
-3.1806	-4.77505	-4.5746	-4.95056
-3.1804	-4.77445	-4.57431	-4.95143
-3.1802	-4.77401	-4.57442	-4.95209
-3.18	-4.77407	-4.5744	-4.95259
-3.1798	-4.7743	-4.57423	-4.95285
-3.1796	-4.7747	-4.57416	-4.95268
-3.1794	-4.77511	-4.57436	-4.95256
-3.1792	-4.77536	-4.57435	-4.95247
-3.179	-4.77555	-4.57439	-4.95236
-3.1788	-4.77573	-4.57456	-4.95223
-3.1786	-4.77586	-4.57471	-4.95231
-3.1784	-4.776	-4.57501	-4.95239
-3.1782	-4.77619	-4.57536	-4.95224
-3.178	-4.77662	-4.57523	-4.95215
-3.1778	-4.77734	-4.57486	-4.95214
-3.1776	-4.77793	-4.57456	-4.95202
-3.1774	-4.77847	-4.57438	-4.95193
-3.1772	-4.77891	-4.57401	-4.9518
-3.177	-4.77923	-4.5735	-4.95168
-3.1768	-4.77948	-4.57299	-4.95152
-3.1766	-4.77972	-4.57251	-4.95128
-3.1764	-4.77999	-4.57194	-4.95121
-3.1762	-4.7803	-4.57133	-4.95099
-3.176	-4.78061	-4.57067	-4.95053
-3.1758	-4.78085	-4.57018	-4.94969
-3.1756	-4.7807	-4.56981	-4.94892
-3.1754	-4.77993	-4.56975	-4.94803
-3.1752	-4.77923	-4.57024	-4.94754
-3.175	-4.77853	-4.57075	-4.94721
-3.1748	-4.77793	-4.57115	-4.94738
-3.1746	-4.77732	-4.57155	-4.94741
-3.1744	-4.7769	-4.57209	-4.94739
-3.1742	-4.77639	-4.57244	-4.94739
-3.174	-4.776	-4.57294	-4.9473
-3.1738	-4.77568	-4.5734	-4.94721
-3.1736	-4.77533	-4.57385	-4.94711
-3.1734	-4.77503	-4.57433	-4.94709
-3.1732	-4.77457	-4.57478	-4.94714
-3.173	-4.77453	-4.5753	-4.94735
-3.1728	-4.7748	-4.57529	-4.9474
-3.1726	-4.77512	-4.57533	-4.94753
-3.1724	-4.77533	-4.57529	-4.9476
-3.1722	-4.77547	-4.57534	-4.9478
-3.172	-4.77557	-4.57541	-4.94798
-3.1718	-4.77563	-4.57559	-4.9483
-3.1716	-4.77581	-4.57569	-4.94868
-3.1714	-4.77586	-4.57568	-4.94896
-3.1712	-4.77609	-4.5758	-4.94933
-3.171	-4.77611	-4.57597	-4.94967
-3.1708	-4.77641	-4.57604	-4.94992
-3.1706	-4.77688	-4.5762	-4.95012
-3.1704	-4.77707	-4.57634	-4.94994
-3.1702	-4.77717	-4.57668	-4.94985
-3.17	-4.77729	-4.57703	-4.95001
-3.1698	-4.77732	-4.57697	-4.95026
-3.1696	-4.77743	-4.57682	-4.95058
-3.1694	-4.77767	-4.57659	-4.9508
-3.1692	-4.77787	-4.57644	-4.95088
-3.169	-4.77788	-4.57645	-4.95116
-3.1688	-4.77801	-4.57633	-4.95132
-3.1686	-4.77816	-4.57646	-4.95153
-3.1684	-4.7782	-4.57642	-4.95159
-3.1682	-4.77825	-4.57644	-4.95166
-3.168	-4.77817	-4.57657	-4.95171
-3.1678	-4.77851	-4.57644	-4.95177
-3.1676	-4.77894	-4.57599	-4.95177
-3.1674	-4.77939	-4.57553	-4.95156
-3.1672	-4.77978	-4.57536	-4.95145
-3.167	-4.78016	-4.57518	-4.95135
-3.1668	-4.7805	-4.57498	-4.95126
-3.1666	-4.78079	-4.57483	-4.95088
-3.1664	-4.78116	-4.57447	-4.95056
-3.1662	-4.78124	-4.57414	-4.95026
-3.166	-4.78111	-4.57384	-4.95005
-3.1658	-4.78093	-4.57335	-4.95012
-3.1656	-4.78066	-4.5729	-4.95046
-3.1654	-4.78029	-4.57234	-4.95104
-3.1652	-4.77956	-4.57192	-4.9517
-3.165	-4.77868	-4.5718	-4.95229
-3.1648	-4.77807	-4.572	-4.95245
-3.1646	-4.77744	-4.57205	-4.95248
-3.1644	-4.77703	-4.57206	-4.9523
-3.1642	-4.7768	-4.57231	-4.95204
-3.164	-4.77648	-4.5728	-4.95168
-3.1638	-4.77606	-4.57343	-4.95125
-3.1636	-4.77579	-4.57397	-4.9511
-3.1634	-4.77546	-4.57442	-4.95102
-3.1632	-4.77526	-4.57484	-4.95091
-3.163	-4.775	-4.57544	-4.95098
-3.1628	-4.77487	-4.57612	-4.95096
-3.1626	-4.7751	-4.5763	-4.95106
-3.1624	-4.77542	-4.57619	-4.95109
-3.1622	-4.77568	-4.57613	-4.95119
-3.162	-4.77574	-4.57611	-4.95142
-3.1618	-4.77579	-4.57622	-4.95163
-3.1616	-4.77576	-4.5762	-4.95198
-3.1614	-4.776	-4.57637	-4.95219
-3.1612	-4.77643	-4.57641	-4.9523
-3.161	-4.77711	-4.57657	-4.95217
-3.1608	-4.77792	-4.57663	-4.9518
-3.1606	-4.77856	-4.5764	-4.95151
-3.1604	-4.77901	-4.57617	-4.95114
-3.1602	-4.77947	-4.57607	-4.95089
-3.16	-4.77929	-4.57613	-4.95062
-3.1598	-4.77918	-4.57677	-4.95044
-3.1596	-4.77899	-4.57733	-4.94994
-3.1594	-4.77915	-4.57835	-4.94969
-3.1592	-4.77916	-4.57886	-4.94926
-3.159	-4.77916	-4.5794	-4.94899
-3.1588	-4.77904	-4.57988	-4.94914
-3.1586	-4.77902	-4.58027	-4.94948
-3.1584	-4.77912	-4.58034	-4.94991
-3.1582	-4.77898	-4.58029	-4.95029
-3.158	-4.77905	-4.58051	-4.95055
-3.1578	-4.77898	-4.58076	-4.95073
-3.1576	-4.77912	-4.5809	-4.95084
-3.1574	-4.77969	-4.58069	-4.95075
-3.1572	-4.78012	-4.58016	-4.95077
-3.157	-4.78062	-4.57972	-4.95059
-3.1568	-4.78094	-4.57937	-4.95039
-3.1566	-4.78089	-4.57903	-4.95034
-3.1564	-4.78062	-4.57869	-4.95043
-3.1562	-4.78032	-4.57833	-4.95074
-3.156	-4.78002	-4.57803	-4.95128
-3.1558	-4.77971	-4.57751	-4.95166
-3.1556	-4.7795	-4.57701	-4.95207
-3.1554	-4.77951	-4.57649	-4.95232
-3.1552	-4.77933	-4.57584	-4.95271
-3.155	-4.77895	-4.57538	-4.9531
-3.1548	-4.77826	-4.57529	-4.95347
-3.1546	-4.77774	-4.57538	-4.95385
-3.1544	-4.77735	-4.57514	-4.95407
-3.1542	-4.777	-4.57516	-4.95437
-3.154	-4.77666	-4.57505	-4.95478
-3.1538	-4.77646	-4.57481	-4.95514
-3.1536	-4.77601	-4.57457	-4.95548
-3.1534	-4.77587	-4.57447	-4.95579
-3.1532	-4.77557	-4.57447	-4.95573
-3.153	-4.77552	-4.57464	-4.95559
-3.1528	-4.7753	-4.575	-4.95549
-3.1526	-4.77489	-4.57556	-4.95532
-3.1524	-4.77495	-4.57608	-4.95527
-3.1522	-4.77531	-4.57614	-4.95513
-3.152	-4.77593	-4.57625	-4.95497
-3.1518	-4.77658	-4.57631	-4.95463
-3.1516	-4.77723	-4.57631	-4.95417
-3.1514	-4.77793	-4.57623	-4.95341
-3.1512	-4.77858	-4.57643	-4.95298
-3.151	-4.77934	-4.57669	-4.95278
-3.1508	-4.77999	-4.57681	-4.95272
-3.1506	-4.78063	-4.57702	-4.95246
-3.1504	-4.78106	-4.57701	-4.95212
-3.1502	-4.78149	-4.57704	-4.95167
-3.15	-4.78181	-4.57688	-4.95142
-3.1498	-4.78165	-4.57692	-4.95104
-3.1496	-4.78135	-4.57735	-4.95066
-3.1494	-4.78119	-4.5778	-4.95052
-3.1492	-4.78113	-4.57809	-4.95024
-3.149	-4.78103	-4.57841	-4.9499
-3.1488	-4.78094	-4.57874	-4.9496
-3.1486	-4.78099	-4.57915	-4.94936
-3.1484	-4.78096	-4.57961	-4.94897
-3.1482	-4.78097	-4.58003	-4.94844
-3.148	-4.78097	-4.58058	-4.94793
-3.1478	-4.78098	-4.58115	-4.94726
-3.1476	-4.78095	-4.58186	-4.94706
-3.1474	-4.78081	-4.58231	-4.94705
-3.1472	-4.78099	-4.58234	-4.9473
-3.147	-4.78097	-4.5817	-4.94783
-3.1468	-4.78093	-4.58126	-4.94867
-3.1466	-4.78083	-4.58079	-4.94946
-3.1464	-4.78076	-4.58047	-4.95022
-3.1462	-4.7806	-4.5803	-4.95077
-3.146	-4.78052	-4.57996	-4.95132
-3.1458	-4.78041	-4.57974	-4.95183
-3.1456	-4.78027	-4.57949	-4.95225
-3.1454	-4.78033	-4.57914	-4.95269
-3.1452	-4.78031	-4.57872	-4.95294
-3.145	-4.78045	-4.57827	-4.95341
-3.1448	-4.78027	-4.57792	-4.95373
-3.1446	-4.77976	-4.57764	-4.95419
-3.1444	-4.77931	-4.57783	-4.95442
-3.1442	-4.7789	-4.57772	-4.95465
-3.144	-4.77861	-4.57781	-4.955
-3.1438	-4.77817	-4.57777	-4.95527
-3.1436	-4.77799	-4.5776	-4.95551
-3.1434	-4.77763	-4.5776	-4.95579
-3.1432	-4.77737	-4.57762	-4.95618
-3.143	-4.77711	-4.57759	-4.95661
-3.1428	-4.77705	-4.57778	-4.95698
-3.1426	-4.777	-4.57775	-4.9572
-3.1424	-4.77717	-4.57788	-4.95733
-3.1422	-4.77769	-4.5778	-4.95707
-3.142	-4.77854	-4.5775	-4.9567
-3.1418	-4.77938	-4.57696	-4.95611
-3.1416	-4.78017	-4.57684	-4.95546
-3.1414	-4.78076	-4.5768	-4.95475
-3.1412	-4.78135	-4.57697	-4.95405
-3.141	-4.78183	-4.57736	-4.95357
-3.1408	-4.78245	-4.57766	-4.95319
-3.1406	-4.78286	-4.57756	-4.95266
-3.1404	-4.78313	-4.5775	-4.9521
-3.1402	-4.78352	-4.57752	-4.95168
-3.14	-4.7838	-4.5775	-4.95136
-3.1398	-4.78409	-4.57728	-4.95089
-3.1396	-4.78409	-4.57717	-4.95027
-3.1394	-4.78372	-4.57759	-4.94989
-3.1392	-4.78362	-4.57816	-4.94952
-3.139	-4.78349	-4.57865	-4.94909
-3.1388	-4.78354	-4.57906	-4.94878
-3.1386	-4.78352	-4.57937	-4.94842
-3.1384	-4.78375	-4.5798	-4.94811
-3.1382	-4.78368	-4.58025	-4.9477
-3.138	-4.78352	-4.58071	-4.94735
-3.1378	-4.78303	-4.58129	-4.94721
-3.1376	-4.78253	-4.58193	-4.94734
-3.1374	-4.78212	-4.58245	-4.94752
-3.1372	-4.78173	-4.58314	-4.94783
-3.137	-4.78156	-4.58356	-4.94799
-3.1368	-4.7817	-4.58369	-4.94801
-3.1366	-4.78197	-4.58372	-4.94799
-3.1364	-4.78209	-4.58394	-4.9479
-3.1362	-4.7821	-4.58402	-4.94814
-3.136	-4.78214	-4.58412	-4.94868
-3.1358	-4.78223	-4.58396	-4.94949
-3.1356	-4.78223	-4.58353	-4.95016
-3.1354	-4.78227	-4.58289	-4.9509
-3.1352	-4.78241	-4.58235	-4.95145
-3.135	-4.78243	-4.58175	-4.95209
-3.1348	-4.78257	-4.58124	-4.95258
-3.1346	-4.78245	-4.58042	-4.95291
-3.1344	-4.78205	-4.57991	-4.9533
-3.1342	-4.78164	-4.57989	-4.9538
-3.134	-4.78113	-4.57992	-4.9542
-3.1338	-4.7808	-4.58002	-4.95472
-3.1336	-4.78033	-4.57994	-4.95522
-3.1334	-4.78011	-4.57984	-4.95572
-3.1332	-4.78015	-4.57992	-4.95608
-3.133	-4.78037	-4.57999	-4.95605
-3.1328	-4.7808	-4.58009	-4.95588
-3.1326	-4.78116	-4.58024	-4.95563
-3.1324	-4.78149	-4.58043	-4.95536
-3.1322	-4.78168	-4.58057	-4.95531
-3.132	-4.78205	-4.58078	-4.95533
-3.1318	-4.78263	-4.58065	-4.95517
-3.1316	-4.78333	-4.58025	-4.95512
-3.1314	-4.78399	-4.57988	-4.95506
-3.1312	-4.78455	-4.57942	-4.95501
-3.131	-4.78515	-4.57911	-4.95537
-3.1308	-4.78564	-4.5788	-4.95541
-3.1306	-4.78603	-4.5786	-4.95528
-3.1304	-4.78605	-4.57825	-4.95478
-3.1302	-4.78643	-4.57808	-4.95406
-3.13	-4.78665	-4.57815	-4.95326
-3.1298	-4.78692	-4.57812	-4.95254
-3.1296	-4.7871	-4.57812	-4.95196
-3.1294	-4.78727	-4.57814	-4.95131
-3.1292	-4.78711	-4.57834	-4.95047
-3.129	-4.78686	-4.57897	-4.9498
-3.1288	-4.78656	-4.57933	-4.94903
-3.1286	-4.78611	-4.57965	-4.94844
-3.1284	-4.78557	-4.57991	-4.948
-3.1282	-4.78501	-4.58027	-4.94797
-3.128	-4.78434	-4.58074	-4.94811
-3.1278	-4.78393	-4.58099	-4.94821
-3.1276	-4.78348	-4.58122	-4.94835
-3.1274	-4.78306	-4.58179	-4.94837
-3.1272	-4.78271	-4.58247	-4.9484
-3.127	-4.7823	-4.58318	-4.94857
-3.1268	-4.78207	-4.58371	-4.94865
-3.1266	-4.78236	-4.58384	-4.94895
-3.1264	-4.78262	-4.58397	-4.94901
-3.1262	-4.78287	-4.58414	-4.94919
-3.126	-4.78295	-4.58419	-4.94943
-3.1258	-4.78316	-4.58438	-4.94956
-3.1256	-4.78333	-4.58473	-4.94966
-3.1254	-4.78335	-4.58497	-4.94981
-3.1252	-4.78348	-4.58519	-4.94986
-3.125	-4.78352	-4.58523	-4.95008
-3.1248	-4.78358	-4.58538	-4.95051
-3.1246	-4.78378	-4.58533	-4.95116
-3.1244	-4.78378	-4.58491	-4.95188
-3.1242	-4.78348	-4.58432	-4.95256
-3.124	-4.78298	-4.58406	-4.95334
-3.1238	-4.78279	-4.58404	-4.95397
-3.1236	-4.78291	-4.58393	-4.95416
-3.1234	-4.78311	-4.58381	-4.95406
-3.1232	-4.78337	-4.58377	-4.95392
-3.123	-4.78362	-4.5838	-4.95394
-3.1228	-4.78378	-4.58364	-4.95398
-3.1226	-4.78399	-4.58346	-4.95392
-3.1224	-4.78413	-4.58358	-4.95395
-3.1222	-4.78425	-4.58375	-4.95386
-3.122	-4.78436	-4.58389	-4.95372
-3.1218	-4.78449	-4.5841	-4.95371
-3.1216	-4.78474	-4.58412	-4.9537
-3.1214	-4.78535	-4.5838	-4.95366
-3.1212	-4.78598	-4.58358	-4.9537
-3.121	-4.7864	-4.58336	-4.95365
-3.1208	-4.78697	-4.58331	-4.9537
-3.1206	-4.78757	-4.58299	-4.95356
-3.1204	-4.78783	-4.58268	-4.9534
-3.1202	-4.78818	-4.58229	-4.95324
-3.12	-4.78849	-4.5818	-4.95299
-3.1198	-4.78892	-4.58137	-4.95268
-3.1196	-4.78936	-4.58075	-4.95252
-3.1194	-4.78949	-4.58007	-4.95223
-3.1192	-4.78932	-4.57947	-4.95195
-3.119	-4.7886	-4.57907	-4.9515
-3.1188	-4.78791	-4.57919	-4.95125
-3.1186	-4.78706	-4.57962	-4.95113
-3.1184	-4.78649	-4.58023	-4.95102
-3.1182	-4.78595	-4.58069	-4.9509
-3.118	-4.78552	-4.5812	-4.95066
-3.1178	-4.78526	-4.58178	-4.9507
-3.1176	-4.78486	-4.58227	-4.9506
-3.1174	-4.78463	-4.5827	-4.95052
-3.1172	-4.78435	-4.58332	-4.95041
-3.117	-4.78411	-4.5839	-4.95046
-3.1168	-4.78398	-4.58458	-4.9506
-3.1166	-4.78356	-4.58511	-4.95065
-3.1164	-4.78371	-4.58534	-4.9506
-3.1162	-4.78399	-4.58526	-4.95063
-3.116	-4.78419	-4.58537	-4.95078
-3.1158	-4.78457	-4.58544	-4.95086
-3.1156	-4.78475	-4.58542	-4.95106
-3.1154	-4.78471	-4.58553	-4.95126
-3.1152	-4.78476	-4.58563	-4.9514
-3.115	-4.78472	-4.58547	-4.95162
-3.1148	-4.78454	-4.58539	-4.95192
-3.1146	-4.78477	-4.58545	-4.95196
-3.1144	-4.78509	-4.58541	-4.95192
-3.1142	-4.78571	-4.58529	-4.95161
-3.114	-4.78616	-4.58531	-4.95087
-3.1138	-4.78614	-4.5856	-4.95026
-3.1136	-4.78608	-4.58618	-4.94986
-3.1134	-4.78603	-4.58661	-4.94973
-3.1132	-4.78607	-4.58694	-4.94999
-3.113	-4.78608	-4.58695	-4.95023
-3.1128	-4.78623	-4.58683	-4.95058
-3.1126	-4.78627	-4.5866	-4.95071
-3.1124	-4.78634	-4.58659	-4.9508
-3.1122	-4.78649	-4.5866	-4.95092
-3.112	-4.78643	-4.58658	-4.95107
-3.1118	-4.7866	-4.58659	-4.95117
-3.1116	-4.78646	-4.58678	-4.95118
-3.1114	-4.7865	-4.58699	-4.95129
-3.1112	-4.7871	-4.58688	-4.95143
-3.111	-4.78788	-4.58642	-4.95153
-3.1108	-4.78852	-4.58636	-4.95153
-3.1106	-4.78904	-4.58616	-4.95157
-3.1104	-4.78943	-4.58587	-4.95128
-3.1102	-4.78979	-4.58551	-4.95097
-3.11	-4.78993	-4.58523	-4.95065
-3.1098	-4.78975	-4.5849	-4.95042
-3.1096	-4.78949	-4.58458	-4.9505
-3.1094	-4.7891	-4.58409	-4.95081
-3.1092	-4.78883	-4.5836	-4.95134
-3.109	-4.78854	-4.58308	-4.95152
-3.1088	-4.78801	-4.58253	-4.95168
-3.1086	-4.78736	-4.58222	-4.95216
-3.1084	-4.78666	-4.5822	-4.95237
-3.1082	-4.78621	-4.58206	-4.95285
-3.108	-4.78577	-4.5817	-4.95318
-3.1078	-4.78551	-4.58154	-4.95321
-3.1076	-4.78517	-4.58138	-4.95291
-3.1074	-4.78494	-4.58148	-4.95268
-3.1072	-4.78472	-4.58189	-4.95232
-3.107	-4.78454	-4.58251	-4.95231
-3.1068	-4.78435	-4.58322	-4.95213
-3.1066	-4.78424	-4.58392	-4.95201
-3.1064	-4.78409	-4.58462	-4.95194
-3.1062	-4.78429	-4.58507	-4.95201
-3.106	-4.78474	-4.58494	-4.95207
-3.1058	-4.78503	-4.58503	-4.95221
-3.1056	-4.78526	-4.58524	-4.95256
-3.1054	-4.78528	-4.58543	-4.95267
-3.1052	-4.78561	-4.58557	-4.95276
-3.105	-4.78621	-4.58568	-4.95267
-3.1048	-4.78686	-4.58581	-4.95232
-3.1046	-4.78761	-4.58592	-4.95182
-3.1044	-4.78811	-4.58593	-4.95148
-3.1042	-4.78856	-4.58563	-4.95095
-3.104	-4.78899	-4.5855	-4.95054
-3.1038	-4.78925	-4.58534	-4.9501
-3.1036	-4.78921	-4.58525	-4.94975
-3.1034	-4.78914	-4.58574	-4.94941
-3.1032	-4.78895	-4.58611	-4.94903
-3.103	-4.78897	-4.58653	-4.94875
-3.1028	-4.78898	-4.58708	-4.94854
-3.1026	-4.78895	-4.5876	-4.94814
-3.1024	-4.78901	-4.58812	-4.94774
-3.1022	-4.78891	-4.58852	-4.94735
-3.102	-4.78886	-4.58902	-4.94736
-3.1018	-4.78893	-4.58932	-4.94746
-3.1016	-4.78907	-4.58962	-4.9477
-3.1014	-4.78901	-4.58971	-4.94795
-3.1012	-4.78918	-4.58986	-4.94811
-3.101	-4.7897	-4.58972	-4.94828
-3.1008	-4.79051	-4.58933	-4.9485
-3.1006	-4.79079	-4.58883	-4.94837
-3.1004	-4.79075	-4.5884	-4.9484
-3.1002	-4.79051	-4.58798	-4.94854
-3.1	-4.79021	-4.5877	-4.94897
-3.0998	-4.78996	-4.58735	-4.94958
-3.0996	-4.78996	-4.58696	-4.95006
-3.0994	-4.78988	-4.5866	-4.95046
-3.0992	-4.78986	-4.58624	-4.95097
-3.099	-4.78972	-4.58575	-4.95134
-3.0988	-4.78973	-4.58531	-4.95171
-3.0986	-4.7896	-4.5849	-4.95201
-3.0984	-4.78911	-4.58483	-4.95239
-3.0982	-4.78857	-4.58508	-4.95269
-3.098	-4.78814	-4.58506	-4.95302
-3.0978	-4.78788	-4.58516	-4.95342
-3.0976	-4.78759	-4.58525	-4.95373
-3.0974	-4.7875	-4.58532	-4.95403
-3.0972	-4.78728	-4.58525	-4.95437
-3.097	-4.78701	-4.585	-4.95475
-3.0968	-4.78678	-4.58492	-4.95522
-3.0966	-4.7867	-4.58482	-4.95578
-3.0964	-4.7866	-4.58498	-4.95603
-3.0962	-4.78631	-4.58512	-4.95612
-3.096	-4.78639	-4.58538	-4.95602
-3.0958	-4.78697	-4.5855	-4.95576
-3.0956	-4.78781	-4.58559	-4.95526
-3.0954	-4.78863	-4.58572	-4.9544
-3.0952	-4.78948	-4.58579	-4.95367
-3.095	-4.79023	-4.58568	-4.95285
-3.0948	-4.79084	-4.5858	-4.95221
-3.0946	-4.79134	-4.58598	-4.95182
-3.0944	-4.7918	-4.58606	-4.95122
-3.0942	-4.79205	-4.58603	-4.95072
-3.094	-4.79247	-4.58587	-4.95023
-3.0938	-4.79281	-4.58585	-4.94967
-3.0936	-4.79312	-4.58563	-4.94931
-3.0934	-4.79309	-4.58555	-4.94909
-3.0932	-4.79268	-4.58573	-4.94876
-3.093	-4.7925	-4.58602	-4.94841
-3.0928	-4.79224	-4.58638	-4.94815
-3.0926	-4.79214	-4.5868	-4.9478
-3.0924	-4.79199	-4.58725	-4.94751
-3.0922	-4.792	-4.58761	-4.94717
-3.092	-4.79212	-4.58808	-4.94693
-3.0918	-4.79212	-4.58858	-4.94646
-3.0916	-4.79231	-4.58913	-4.94609
-3.0914	-4.79235	-4.58971	-4.94567
-3.0912	-4.79208	-4.59038	-4.94539
-3.091	-4.79171	-4.59131	-4.94511
-3.0908	-4.79166	-4.592	-4.9455
-3.0906	-4.79162	-4.59227	-4.94626
-3.0904	-4.79155	-4.59214	-4.94696
-3.0902	-4.79164	-4.59182	-4.94782
-3.09	-4.79163	-4.59138	-4.94871
-3.0898	-4.79155	-4.59086	-4.94946
-3.0896	-4.7916	-4.59035	-4.95002
-3.0894	-4.79164	-4.59003	-4.95076
-3.0892	-4.79174	-4.58966	-4.95126
-3.089	-4.79182	-4.58918	-4.95165
-3.0888	-4.79186	-4.58862	-4.952
-3.0886	-4.79192	-4.58798	-4.95245
-3.0884	-4.79194	-4.58743	-4.95281
-3.0882	-4.79174	-4.58704	-4.95322
-3.088	-4.79131	-4.58703	-4.95361
-3.0878	-4.79083	-4.58698	-4.954
-3.0876	-4.79039	-4.58698	-4.9545
-3.0874	-4.79018	-4.58707	-4.95496
-3.0872	-4.78989	-4.58707	-4.95541
-3.087	-4.78968	-4.58699	-4.9559
-3.0868	-4.78951	-4.58696	-4.95629
-3.0866	-4.78943	-4.58704	-4.9566
-3.0864	-4.78962	-4.58729	-4.95703
-3.0862	-4.78996	-4.5874	-4.95708
-3.086	-4.79004	-4.58754	-4.95677
-3.0858	-4.79044	-4.58762	-4.95643
-3.0856	-4.79115	-4.58746	-4.95639
-3.0854	-4.79205	-4.58688	-4.95648
-3.0852	-4.7926	-4.58638	-4.95645
-3.085	-4.79315	-4.586	-4.95619
-3.0848	-4.79354	-4.58566	-4.95566
-3.0846	-4.79388	-4.58538	-4.95502
-3.0844	-4.7941	-4.58547	-4.95429
-3.0842	-4.79448	-4.58565	-4.95353
